Sensor Model:   CX-1050-SD-1.4L
Serial Number:  X21238
Data Format:    4      (Log Ohms/Kelvin)
SetPoint Limit: 325.      (Kelvin)
Temperature coefficient:  1 (Negative)
Number of Breakpoints:   146

No.   Units      Temperature (K)

  1  1.76936       325.000
  2  1.77636       318.500
  3  1.78295       312.500
  4  1.78968       306.500
  5  1.79655       300.500
  6  1.80356       294.500
  7  1.81073       288.500
  8  1.81805       282.500
  9  1.82491       277.000
 10  1.83190       271.500
 11  1.83904       266.000
 12  1.84633       260.500
 13  1.85377       255.000
 14  1.86137       249.500
 15  1.86915       244.000
 16  1.87709       238.500
 17  1.88521       233.000
 18  1.89352       227.500
 19  1.90203       222.000
 20  1.91073       216.500
 21  1.91883       211.500
 22  1.92711       206.500
 23  1.93557       201.500
 24  1.94424       196.500
 25  1.95310       191.500
 26  1.96218       186.500
 27  1.97149       181.500
 28  1.98103       176.500
 29  1.99081       171.500
 30  2.00086       166.500
 31  2.01014       162.000
 32  2.01965       157.500
 33  2.02940       153.000
 34  2.03942       148.500
 35  2.04970       144.000
 36  2.06028       139.500
 37  2.07117       135.000
 38  2.08113       131.000
 39  2.09135       127.000
 40  2.10187       123.000
 41  2.11270       119.000
 42  2.12387       115.000
 43  2.13539       111.000
 44  2.14729       107.000
 45  2.15805       103.500
 46  2.16754       100.500
 47  2.17565        98.000
 48  2.18395        95.500
 49  2.19245        93.000
 50  2.20117        90.500
 51  2.21012        88.000
 52  2.21931        85.500
 53  2.22875        83.000
 54  2.23652        81.000
 55  2.24447        79.000
 56  2.25262        77.000
 57  2.26097        75.000
 58  2.26954        73.000
 59  2.27833        71.000
 60  2.28738        69.000
 61  2.29668        67.000
 62  2.30626        65.000
 63  2.31613        63.000
 64  2.32632        61.000
 65  2.33684        59.000
 66  2.34662        57.200
 67  2.35671        55.400
 68  2.36713        53.600
 69  2.37790        51.800
 70  2.38905        50.000
 71  2.40061        48.200
 72  2.41126        46.600
 73  2.42226        45.000
 74  2.43367        43.400
 75  2.44551        41.800
 76  2.45780        40.200
 77  2.46978        38.700
 78  2.48222        37.200
 79  2.49518        35.700
 80  2.50777        34.300
 81  2.52088        32.900
 82  2.53455        31.500
 83  2.54884        30.100
 84  2.56273        28.800
 85  2.57724        27.500
 86  2.59245        26.200
 87  2.60720        25.000
 88  2.62266        23.800
 89  2.63895        22.600
 90  2.65469        21.500
 91  2.67127        20.400
 92  2.68399        19.600
 93  2.69470        18.950
 94  2.70581        18.300
 95  2.71736        17.650
 96  2.72846        17.050
 97  2.73999        16.450
 98  2.75201        15.850
 99  2.76350        15.300
100  2.77547        14.750
101  2.78797        14.200
102  2.80102        13.650
103  2.81343        13.150
104  2.82641        12.650
105  2.84005        12.150
106  2.85438        11.650
107  2.86795        11.200
108  2.88218        10.750
109  2.89719        10.300
110  2.91304         9.850
111  2.92794         9.450
112  2.94364         9.050
113  2.96027         8.650
114  2.97793         8.250
115  2.99676         7.850
116  3.01434         7.500
117  3.03302         7.150
118  3.05301         6.800
119  3.07443         6.450
120  3.09753         6.100
121  3.12034         5.780
122  3.14341         5.480
123  3.16831         5.180
124  3.19536         4.880
125  3.22289         4.600
126  3.25072         4.340
127  3.28104         4.080
128  3.30650         3.880
129  3.32961         3.710
130  3.35431         3.540
131  3.38085         3.370
132  3.40775         3.210
133  3.43669         3.050
134  3.46604         2.900
135  3.49774         2.750
136  3.52990         2.610
137  3.56479         2.470
138  3.60298         2.330
139  3.64193         2.200
140  3.68132         2.080
141  3.72450         1.960
142  3.77218         1.840
143  3.82509         1.720
144  3.88396         1.600
145  3.94410         1.490
146  3.99922         1.400
