Sensor Model:   DT-470-SD-13-1.4H
Serial Number:  D57327
Data Format:    2      (Volts/Kelvin)
SetPoint Limit: 500.      (Kelvin)
Temperature coefficient:  1 (Negative)
Number of Breakpoints:   111

No.   Units      Temperature (K)

  1  4.17411e-02   500.000
  2  5.06198e-02   494.500
  3  6.04429e-02   489.000
  4  7.32128e-02   482.500
  5  8.81545e-02   475.500
  6  9.15757e-02   474.000
  7  .101725       469.500
  8  .118142       462.500
  9  .139907       453.500
 10  .173333       440.000
 11  .271070       401.000
 12  .331951       376.500
 13  .391034       352.500
 14  .456837       325.500
 15  .491962       311.000
 16  .548518       287.500
 17  .599983       266.000
 18  .642817       248.000
 19  .680617       232.000
 20  .714602       217.500
 21  .745981       204.000
 22  .775935       191.000
 23  .804469       178.500
 24  .830460       167.000
 25  .855067       156.000
 26  .878297       145.500
 27  .899063       136.000
 28  .918494       127.000
 29  .936604       118.500
 30  .953407       110.500
 31  .969955       102.500
 32  .982190        96.500
 33  .991259        92.000
 34  1.00021        87.500
 35  1.00904        83.000
 36  1.01777        78.500
 37  1.02637        74.000
 38  1.03485        69.500
 39  1.04322        65.000
 40  1.05148        60.500
 41  1.05964        56.000
 42  1.06680        52.000
 43  1.07315        48.400
 44  1.07940        44.800
 45  1.08730        40.200
 46  1.09166        37.700
 47  1.09508        35.800
 48  1.09806        34.200
 49  1.10058        32.900
 50  1.10303        31.700
 51  1.10518        30.700
 52  1.10724        29.800
 53  1.10918        29.000
 54  1.11100        28.300
 55  1.11296        27.600
 56  1.11481        27.000
 57  1.11651        26.500
 58  1.11803        26.100
 59  1.11975        25.700
 60  1.12178        25.300
 61  1.12362        25.000
 62  1.12579        24.700
 63  1.12848        24.400
 64  1.13183        24.100
 65  1.13597        23.800
 66  1.14100        23.500
 67  1.14885        23.100
 68  1.17313        22.000
 69  1.18524        21.400
 70  1.20007        20.600
 71  1.21923        19.500
 72  1.24070        18.250
 73  1.25735        17.300
 74  1.27261        16.450
 75  1.28648        15.700
 76  1.29984        15.000
 77  1.31268        14.350
 78  1.32500        13.750
 79  1.33673        13.200
 80  1.34893        12.650
 81  1.36169        12.100
 82  1.37382        11.600
 83  1.38649        11.100
 84  1.39980        10.600
 85  1.41239        10.150
 86  1.42559         9.700
 87  1.43950         9.250
 88  1.45417         8.800
 89  1.46964         8.350
 90  1.48589         7.900
 91  1.50479         7.400
 92  1.52849         6.800
 93  1.57395         5.680
 94  1.60154         4.980
 95  1.62279         4.420
 96  1.63728         4.020
 97  1.64807         3.710
 98  1.65777         3.420
 99  1.66643         3.150
100  1.67410         2.900
101  1.68052         2.680
102  1.68577         2.490
103  1.69018         2.320
104  1.69406         2.160
105  1.69742         2.010
106  1.70009         1.880
107  1.70236         1.760
108  1.70443         1.640
109  1.70614         1.530
110  1.70755         1.430
111  1.70794         1.400
