Sensor Model:   CX-1030-CU-1.4L
Serial Number:  X11149
Data Format:    4      (Log Ohms/Kelvin)
SetPoint Limit: 325.      (Kelvin)
Temperature coefficient:  1 (Negative)
Number of Breakpoints:   144

No.   Units      Temperature (K)

  1  1.47759       325.000
  2  1.48204       319.000
  3  1.48621       313.500
  4  1.49048       308.000
  5  1.49485       302.500
  6  1.49933       297.000
  7  1.50392       291.500
  8  1.50862       286.000
  9  1.51299       281.000
 10  1.51746       276.000
 11  1.52202       271.000
 12  1.52669       266.000
 13  1.53147       261.000
 14  1.53635       256.000
 15  1.54135       251.000
 16  1.54646       246.000
 17  1.55169       241.000
 18  1.55705       236.000
 19  1.56253       231.000
 20  1.56814       226.000
 21  1.57389       221.000
 22  1.57977       216.000
 23  1.58580       211.000
 24  1.59198       206.000
 25  1.59832       201.000
 26  1.60482       196.000
 27  1.61148       191.000
 28  1.61832       186.000
 29  1.62534       181.000
 30  1.63183       176.500
 31  1.63847       172.000
 32  1.64527       167.500
 33  1.65225       163.000
 34  1.65941       158.500
 35  1.66675       154.000
 36  1.67430       149.500
 37  1.68204       145.000
 38  1.69001       140.500
 39  1.69820       136.000
 40  1.70663       131.500
 41  1.71531       127.000
 42  1.72326       123.000
 43  1.73143       119.000
 44  1.73984       115.000
 45  1.74850       111.000
 46  1.75743       107.000
 47  1.76666       103.000
 48  1.77380       100.000
 49  1.77989        97.500
 50  1.78611        95.000
 51  1.79248        92.500
 52  1.79901        90.000
 53  1.80570        87.500
 54  1.81256        85.000
 55  1.81962        82.500
 56  1.82686        80.000
 57  1.83428        77.500
 58  1.84038        75.500
 59  1.84662        73.500
 60  1.85304        71.500
 61  1.85962        69.500
 62  1.86637        67.500
 63  1.87331        65.500
 64  1.88044        63.500
 65  1.88777        61.500
 66  1.89571        59.400
 67  1.90351        57.400
 68  1.91156        55.400
 69  1.91988        53.400
 70  1.92761        51.600
 71  1.93558        49.800
 72  1.94382        48.000
 73  1.95233        46.200
 74  1.96115        44.400
 75  1.97029        42.600
 76  1.97871        41.000
 77  1.98797        39.300
 78  1.99703        37.700
 79  2.00642        36.100
 80  2.01619        34.500
 81  2.02572        33.000
 82  2.03563        31.500
 83  2.04597        30.000
 84  2.05603        28.600
 85  2.06653        27.200
 86  2.07672        25.900
 87  2.08736        24.600
 88  2.09852        23.300
 89  2.10932        22.100
 90  2.12065        20.900
 91  2.12957        20.000
 92  2.13675        19.300
 93  2.14417        18.600
 94  2.15186        17.900
 95  2.15927        17.250
 96  2.16694        16.600
 97  2.17430        16.000
 98  2.18195        15.400
 99  2.18990        14.800
100  2.19751        14.250
101  2.20475        13.750
102  2.21307        13.200
103  2.22253        12.600
104  2.23076        12.100
105  2.23937        11.600
106  2.24842        11.100
107  2.25792        10.600
108  2.26692        10.150
109  2.27638         9.700
110  2.28635         9.250
111  2.29690         8.800
112  2.30683         8.400
113  2.31731         8.000
114  2.32844         7.600
115  2.34029         7.200
116  2.35135         6.850
117  2.36310         6.500
118  2.37566         6.150
119  2.38835         5.820
120  2.40154         5.500
121  2.41574         5.180
122  2.43012         4.880
123  2.44566         4.580
124  2.46143         4.300
125  2.47856         4.020
126  2.48260         3.960
127  2.49186         3.820
128  2.50458         3.640
129  2.51814         3.460
130  2.53267         3.280
131  2.54739         3.110
132  2.56226         2.950
133  2.57821         2.790
134  2.59543         2.630
135  2.61291         2.480
136  2.63055         2.340
137  2.64966         2.200
138  2.67054         2.060
139  2.69183         1.930
140  2.71339         1.810
141  2.73713         1.690
142  2.76130         1.580
143  2.78804         1.470
144  2.80678         1.400
