Sensor Model:   CGR-1-2000-1.4L
Serial Number:  C19522
Data Format:    4      (Log Ohms/Kelvin)
SetPoint Limit: 325.      (Kelvin)
Temperature coefficient:  1 (Negative)
Number of Breakpoints:   172

No.   Units      Temperature (K)

  1  .840437       325.000
  2  .843014       319.500
  3  .845408       314.500
  4  .847854       309.500
  5  .850356       304.500
  6  .852914       299.500
  7  .855530       294.500
  8  .858207       289.500
  9  .860944       284.500
 10  .863744       279.500
 11  .866606       274.500
 12  .869534       269.500
 13  .872526       264.500
 14  .875586       259.500
 15  .878714       254.500
 16  .881912       249.500
 17  .885183       244.500
 18  .888530       239.500
 19  .891956       234.500
 20  .895467       229.500
 21  .899067       224.500
 22  .902391       220.000
 23  .905796       215.500
 24  .909291       211.000
 25  .912882       206.500
 26  .916577       202.000
 27  .919958       198.000
 28  .923430       194.000
 29  .927004       190.000
 30  .930686       186.000
 31  .934481       182.000
 32  .938397       178.000
 33  .942438       174.000
 34  .946609       170.000
 35  .950914       166.000
 36  .955355       162.000
 37  .959933       158.000
 38  .964652       154.000
 39  .969517       150.000
 40  .974532       146.000
 41  .979707       142.000
 42  .984379       138.500
 43  .988505       135.500
 44  .992773       132.500
 45  .997216       129.500
 46  1.00185       126.500
 47  1.00667       123.500
 48  1.01247       120.000
 49  1.01848       116.500
 50  1.02382       113.500
 51  1.02935       110.500
 52  1.03511       107.500
 53  1.04110       104.500
 54  1.04735       101.500
 55  1.05277        99.000
 56  1.05725        97.000
 57  1.06186        95.000
 58  1.06661        93.000
 59  1.07152        91.000
 60  1.07658        89.000
 61  1.08182        87.000
 62  1.08723        85.000
 63  1.09284        83.000
 64  1.09865        81.000
 65  1.10467        79.000
 66  1.11093        77.000
 67  1.11744        75.000
 68  1.12251        73.500
 69  1.12772        72.000
 70  1.13310        70.500
 71  1.13866        69.000
 72  1.14440        67.500
 73  1.15035        66.000
 74  1.15650        64.500
 75  1.16288        63.000
 76  1.16949        61.500
 77  1.17636        60.000
 78  1.18302        58.600
 79  1.18992        57.200
 80  1.19710        55.800
 81  1.20456        54.400
 82  1.21232        53.000
 83  1.22041        51.600
 84  1.22886        50.200
 85  1.23768        48.800
 86  1.24690        47.400
 87  1.25657        46.000
 88  1.26671        44.600
 89  1.27582        43.400
 90  1.28532        42.200
 91  1.29526        41.000
 92  1.30656        39.700
 93  1.31753        38.500
 94  1.32906        37.300
 95  1.34120        36.100
 96  1.35293        35.000
 97  1.36525        33.900
 98  1.37826        32.800
 99  1.39201        31.700
100  1.40655        30.600
101  1.42193        29.500
102  1.43677        28.500
103  1.45247        27.500
104  1.46915        26.500
105  1.48690        25.500
106  1.50585        24.500
107  1.52408        23.600
108  1.54346        22.700
109  1.56420        21.800
110  1.58643        20.900
111  1.60762        20.100
112  1.62450        19.500
113  1.63922        19.000
114  1.65460        18.500
115  1.67071        18.000
116  1.68759        17.500
117  1.70532        17.000
118  1.72396        16.500
119  1.74360        16.000
120  1.76222        15.550
121  1.78175        15.100
122  1.80234        14.650
123  1.82405        14.200
124  1.84699        13.750
125  1.87128        13.300
126  1.89705        12.850
127  1.92137        12.450
128  1.94705        12.050
129  1.97430        11.650
130  2.00324        11.250
131  2.03405        10.850
132  2.06691        10.450
133  2.10205        10.050
134  2.13491         9.700
135  2.16979         9.350
136  2.20703         9.000
137  2.24680         8.650
138  2.28948         8.300
139  2.33550         7.950
140  2.37804         7.650
141  2.42352         7.350
142  2.47248         7.050
143  2.52517         6.750
144  2.58210         6.450
145  2.64393         6.150
146  2.70899         5.860
147  2.77742         5.580
148  2.85206         5.300
149  2.92785         5.040
150  3.01052         4.780
151  3.10134         4.520
152  3.19361         4.280
153  3.29500         4.040
154  3.38339         3.850
155  3.46359         3.690
156  3.54991         3.530
157  3.64333         3.370
158  3.73825         3.220
159  3.84097         3.070
160  3.95275         2.920
161  4.06640         2.780
162  4.18992         2.640
163  4.32501         2.500
164  4.46248         2.370
165  4.61299         2.240
166  4.76634         2.120
167  4.92105         2.010
168  5.09190         1.900
169  5.28247         1.790
170  5.49563         1.680
171  5.75393         1.560
172  6.13156         1.400
