Sensor Model:   CX-1050-CU-1.4L
Serial Number:  X68437
Data Format:    4      (Log Ohms/Kelvin)
SetPoint Limit: 325.0      (Kelvin)
Temperature coefficient:  1 (Negative)
Number of Breakpoints:   145

No.   Units      Temperature (K)

  1  1.74014       325.000
  2  1.74673       319.000
  3  1.75289       313.500
  4  1.75918       308.000
  5  1.76561       302.500
  6  1.77219       297.000
  7  1.77891       291.500
  8  1.78578       286.000
  9  1.79280       280.500
 10  1.79999       275.000
 11  1.80734       269.500
 12  1.81487       264.000
 13  1.82257       258.500
 14  1.83046       253.000
 15  1.83853       247.500
 16  1.84605       242.500
 17  1.85373       237.500
 18  1.86159       232.500
 19  1.86962       227.500
 20  1.87784       222.500
 21  1.88625       217.500
 22  1.89487       212.500
 23  1.90369       207.500
 24  1.91272       202.500
 25  1.92198       197.500
 26  1.93147       192.500
 27  1.94121       187.500
 28  1.95120       182.500
 29  1.96145       177.500
 30  1.97093       173.000
 31  1.98062       168.500
 32  1.99057       164.000
 33  2.00076       159.500
 34  2.01123       155.000
 35  2.02197       150.500
 36  2.03301       146.000
 37  2.04436       141.500
 38  2.05603       137.000
 39  2.06805       132.500
 40  2.07905       128.500
 41  2.09034       124.500
 42  2.10195       120.500
 43  2.11391       116.500
 44  2.12623       112.500
 45  2.13895       108.500
 46  2.15208       104.500
 47  2.16395       101.000
 48  2.17265        98.500
 49  2.18154        96.000
 50  2.19064        93.500
 51  2.19996        91.000
 52  2.20951        88.500
 53  2.21930        86.000
 54  2.22935        83.500
 55  2.23967        81.000
 56  2.25028        78.500
 57  2.26119        76.000
 58  2.27017        74.000
 59  2.27936        72.000
 60  2.28879        70.000
 61  2.29847        68.000
 62  2.30841        66.000
 63  2.31863        64.000
 64  2.32915        62.000
 65  2.33998        60.000
 66  2.35115        58.000
 67  2.36268        56.000
 68  2.37338        54.200
 69  2.38441        52.400
 70  2.39579        50.600
 71  2.40755        48.800
 72  2.41970        47.000
 73  2.43229        45.200
 74  2.44534        43.400
 75  2.45737        41.800
 76  2.46981        40.200
 77  2.48271        38.600
 78  2.49610        37.000
 79  2.50915        35.500
 80  2.52270        34.000
 81  2.53680        32.500
 82  2.55050        31.100
 83  2.56477        29.700
 84  2.57966        28.300
 85  2.59411        27.000
 86  2.60919        25.700
 87  2.62500        24.400
 88  2.64033        23.200
 89  2.65640        22.000
 90  2.67334        20.800
 91  2.68673        19.900
 92  2.69753        19.200
 93  2.70792        18.550
 94  2.71869        17.900
 95  2.72986        17.250
 96  2.74058        16.650
 97  2.75170        16.050
 98  2.76328        15.450
 99  2.77534        14.850
100  2.78688        14.300
101  2.79891        13.750
102  2.81150        13.200
103  2.82349        12.700
104  2.83602        12.200
105  2.84917        11.700
106  2.86300        11.200
107  2.87611        10.750
108  2.88988        10.300
109  2.90442         9.850
110  2.91980         9.400
111  2.93429         9.000
112  2.94959         8.600
113  2.96585         8.200
114  2.98315         7.800
115  2.99931         7.450
116  3.01647         7.100
117  3.03480         6.750
118  3.05446         6.400
119  3.07564         6.050
120  3.09587         5.740
121  3.11692         5.440
122  3.13966         5.140
123  3.16434         4.840
124  3.18944         4.560
125  3.21481         4.300
126  3.24246         4.040
127  3.26568         3.840
128  3.28677         3.670
129  3.30934         3.500
130  3.33361         3.330
131  3.35823         3.170
132  3.38476         3.010
133  3.41169         2.860
134  3.44081         2.710
135  3.47037         2.570
136  3.50243         2.430
137  3.53749         2.290
138  3.57319         2.160
139  3.61229         2.030
140  3.65213         1.910
141  3.69603         1.790
142  3.74079         1.680
143  3.79062         1.570
144  3.84676         1.460
145  3.88097         1.400
