Sensor Model:   DT-470-SD-13-1.4H
Serial Number:  D57330
Data Format:    2      (Volts/Kelvin)
SetPoint Limit: 500.      (Kelvin)
Temperature coefficient:  1 (Negative)
Number of Breakpoints:   106

No.   Units      Temperature (K)

  1  4.34008e-02   500.000
  2  5.33276e-02   494.000
  3  6.43605e-02   488.000
  4  7.85011e-02   481.000
  5  9.15760e-02   475.000
  6  .105207       469.000
  7  .122898       461.500
  8  .145969       452.000
  9  .184414       436.500
 10  .262002       405.500
 11  .322821       381.000
 12  .380599       357.500
 13  .450005       329.000
 14  .505456       306.000
 15  .559399       283.500
 16  .608290       263.000
 17  .649775       245.500
 18  .686249       230.000
 19  .720098       215.500
 20  .751339       202.000
 21  .781152       189.000
 22  .808413       177.000
 23  .834284       165.500
 24  .858766       154.500
 25  .880771       144.500
 26  .901434       135.000
 27  .920762       126.000
 28  .938777       117.500
 29  .955485       109.500
 30  .971929       101.500
 31  .984087        95.500
 32  .993088        91.000
 33  1.00197        86.500
 34  1.01075        82.000
 35  1.01940        77.500
 36  1.02793        73.000
 37  1.03634        68.500
 38  1.04463        64.000
 39  1.05408        58.800
 40  1.06304        53.800
 41  1.07189        48.800
 42  1.08728        40.000
 43  1.09156        37.600
 44  1.09505        35.700
 45  1.09809        34.100
 46  1.10067        32.800
 47  1.10316        31.600
 48  1.10536        30.600
 49  1.10745        29.700
 50  1.10943        28.900
 51  1.11128        28.200
 52  1.11328        27.500
 53  1.11516        26.900
 54  1.11691        26.400
 55  1.11849        26.000
 56  1.12029        25.600
 57  1.12185        25.300
 58  1.12367        25.000
 59  1.12586        24.700
 60  1.12858        24.400
 61  1.13201        24.100
 62  1.13626        23.800
 63  1.14140        23.500
 64  1.14941        23.100
 65  1.16963        22.200
 66  1.18206        21.600
 67  1.19545        20.900
 68  1.20978        20.100
 69  1.24462        18.100
 70  1.26153        17.150
 71  1.27706        16.300
 72  1.29120        15.550
 73  1.30480        14.850
 74  1.31785        14.200
 75  1.33035        13.600
 76  1.34335        13.000
 77  1.35576        12.450
 78  1.36870        11.900
 79  1.38225        11.350
 80  1.39515        10.850
 81  1.40865        10.350
 82  1.42144         9.900
 83  1.43487         9.450
 84  1.44900         9.000
 85  1.46387         8.550
 86  1.47948         8.100
 87  1.49768         7.600
 88  1.52239         6.950
 89  1.57440         5.620
 90  1.60412         4.840
 91  1.62247         4.340
 92  1.63361         4.020
 93  1.64297         3.740
 94  1.65229         3.450
 95  1.66124         3.160
 96  1.66894         2.900
 97  1.67544         2.670
 98  1.68081         2.470
 99  1.68535         2.290
100  1.68911         2.130
101  1.69216         1.990
102  1.69477         1.860
103  1.69717         1.730
104  1.69917         1.610
105  1.70084         1.500
106  1.70221         1.400
