Sensor Model:   CX-1050-SD-1.4L
Serial Number:  X23517
Data Format:    4      (Log Ohms/Kelvin)
SetPoint Limit: 325.      (Kelvin)
Temperature coefficient:  1 (Negative)
Number of Breakpoints:   150

No.   Units      Temperature (K)

  1  1.81425       325.000
  2  1.82139       319.000
  3  1.82808       313.500
  4  1.83491       308.000
  5  1.84190       302.500
  6  1.84904       297.000
  7  1.85634       291.500
  8  1.86381       286.000
  9  1.87145       280.500
 10  1.87928       275.000
 11  1.88729       269.500
 12  1.89475       264.500
 13  1.90236       259.500
 14  1.91016       254.500
 15  1.91812       249.500
 16  1.92628       244.500
 17  1.93462       239.500
 18  1.94316       234.500
 19  1.95191       229.500
 20  1.96087       224.500
 21  1.97006       219.500
 22  1.97947       214.500
 23  1.98913       209.500
 24  1.99903       204.500
 25  2.00919       199.500
 26  2.01963       194.500
 27  2.02927       190.000
 28  2.03915       185.500
 29  2.04928       181.000
 30  2.05966       176.500
 31  2.07032       172.000
 32  2.08127       167.500
 33  2.09251       163.000
 34  2.10407       158.500
 35  2.11596       154.000
 36  2.12820       149.500
 37  2.13940       145.500
 38  2.15089       141.500
 39  2.16271       137.500
 40  2.17487       133.500
 41  2.18739       129.500
 42  2.20029       125.500
 43  2.21360       121.500
 44  2.22734       117.500
 45  2.24155       113.500
 46  2.25440       110.000
 47  2.26764       106.500
 48  2.28131       103.000
 49  2.29139       100.500
 50  2.30168        98.000
 51  2.31224        95.500
 52  2.32307        93.000
 53  2.33420        90.500
 54  2.34563        88.000
 55  2.35738        85.500
 56  2.36948        83.000
 57  2.37944        81.000
 58  2.38963        79.000
 59  2.40010        77.000
 60  2.41083        75.000
 61  2.42185        73.000
 62  2.43317        71.000
 63  2.44481        69.000
 64  2.45680        67.000
 65  2.46916        65.000
 66  2.48191        63.000
 67  2.49507        61.000
 68  2.50868        59.000
 69  2.52134        57.200
 70  2.53440        55.400
 71  2.54791        53.600
 72  2.56188        51.800
 73  2.57635        50.000
 74  2.59136        48.200
 75  2.60520        46.600
 76  2.61951        45.000
 77  2.63436        43.400
 78  2.64976        41.800
 79  2.66577        40.200
 80  2.68138        38.700
 81  2.69760        37.200
 82  2.71449        35.700
 83  2.73092        34.300
 84  2.74803        32.900
 85  2.76588        31.500
 86  2.78455        30.100
 87  2.80270        28.800
 88  2.82168        27.500
 89  2.84159        26.200
 90  2.86090        25.000
 91  2.88115        23.800
 92  2.90249        22.600
 93  2.92314        21.500
 94  2.94489        20.400
 95  2.96158        19.600
 96  2.97563        18.950
 97  2.99021        18.300
 98  3.00536        17.650
 99  3.01992        17.050
100  3.03504        16.450
101  3.05079        15.850
102  3.06585        15.300
103  3.08152        14.750
104  3.09788        14.200
105  3.11499        13.650
106  3.13128        13.150
107  3.14831        12.650
108  3.16619        12.150
109  3.18497        11.650
110  3.20276        11.200
111  3.22142        10.750
112  3.24110        10.300
113  3.26188         9.850
114  3.28143         9.450
115  3.30203         9.050
116  3.32387         8.650
117  3.34707         8.250
118  3.37181         7.850
119  3.39493         7.500
120  3.41952         7.150
121  3.44583         6.800
122  3.47408         6.450
123  3.50457         6.100
124  3.53472         5.780
125  3.56526         5.480
126  3.59827         5.180
127  3.63177         4.900
128  3.66813         4.620
129  3.70502         4.360
130  3.74526         4.100
131  3.77912         3.900
132  3.80987         3.730
133  3.84281         3.560
134  3.87822         3.390
135  3.91416         3.230
136  3.95287         3.070
137  3.99216         2.920
138  4.03465         2.770
139  4.07778         2.630
140  4.12464         2.490
141  4.17223         2.360
142  4.22420         2.230
143  4.28152         2.100
144  4.34008         1.980
145  4.40481         1.860
146  4.47696         1.740
147  4.55063         1.630
148  4.63205         1.520
149  4.72256         1.410
150  4.73203         1.400
